FREQ,AMP
0.3,0.107707244794
0.305333117343,0.107916673729
0.310761041821,0.108092484721
0.316285458826,0.108231749435
0.321908083711,0.108339541809
0.327630662324,0.108433093786
0.333454971549,0.108540856209
0.339382819854,0.10869758568
0.345416047862,0.1089378523
0.351556528913,0.109289481595
0.357806169651,0.109767450199
0.364166910613,0.110369033528
0.370640726835,0.11107190395
0.377229628462,0.111836859745
0.383935661374,0.112615336153
0.390760907821,0.113360276297
0.397707487069,0.114037792549
0.404777556058,0.114635235326
0.411973310071,0.115161981033
0.41929698342,0.115642514746
0.426750850133,0.116104832407
0.434337224666,0.11656916333
0.442058462618,0.117040279544
0.449916961462,0.117504249341
0.457915161295,0.117929882026
0.466055545589,0.11827447592
0.474340641965,0.118493073725
0.482773022978,0.118549178889
0.491355306916,0.118424575511
0.500090158612,0.118125548658
0.508980290271,0.117684081789
0.518028462315,0.117154096432
0.527237484236,0.116603649352
0.536610215472,0.116104109898
0.546149566294,0.11571772019
0.555858498706,0.115485686208
0.565740027371,0.115419926813
0.575797220542,0.115501264621
0.586033201018,0.115685109679
0.59645114711,0.115912956614
0.607054293632,0.116125572942
0.617845932903,0.116273692
0.628829415769,0.11632451431
0.640008152645,0.116264560369
0.651385614573,0.116100471769
0.662965334299,0.115859182432
0.674750907372,0.11558711226
0.686745993259,0.115347722922
0.698954316481,0.115217613695
0.71137966777,0.115281581736
0.724025905248,0.115625639436
0.736896955621,0.116327443689
0.7499968154,0.117445688773
0.763329552144,0.119011791574
0.776899305719,0.121026876785
0.790710289589,0.123465470608
0.804766792117,0.126285693817
0.819073177903,0.129444036292
0.833633889136,0.132909599566
0.848453446974,0.13667094527
0.863536452949,0.140731130106
0.878887590393,0.145091266068
0.894511625895,0.149729385601
0.910413410779,0.154584591937
0.926597882612,0.15955466546
0.943070066737,0.16450867441
0.959835077831,0.169309292198
0.976898121496,0.173835699282
0.994264495875,0.177997699822
1.0119395933,0.181736829145
1.02992890194,0.185017113127
1.04823800757,0.187812721078
1.06687259523,0.190099503676
1.08583845103,0.191854755329
1.10514146395,0.193064387654
1.12478762764,0.193732184457
1.14478304232,0.19388403334
1.16513391664,0.193563277917
1.18584656963,0.19281970829
1.20692743265,0.191697515231
1.22838305139,0.190226710631
1.25022008791,0.188420223567
1.27244532268,0.186276595084
1.29506565674,0.183787286874
1.31808811379,0.180947221681
1.34151984238,0.177766169545
1.36536811817,0.174277620375
1.38964034614,0.170541808587
1.41434406291,0.166641887763
1.43948693908,0.162674116344
1.46507678161,0.158734549858
1.49112153625,0.154906075846
1.51762929,0.151249421457
1.54460827362,0.147799807298
1.57206686419,0.144568941663
1.60001358771,0.141550736741
1.62845712176,0.138728191079
1.65740629815,0.136079544818
1.68687010572,0.133582330478
1.71685769311,0.131214881837
1.74737837157,0.128955970902
1.77844161789,0.126783790014
1.81005707734,0.124675069123
1.84223456665,0.12260572912
1.87498407703,0.120553802009
1.90831577736,0.118503089605
1.94224001725,0.116445925012
1.97676733032,0.114383080406
2.01190843742,0.112319820529
2.04767425002,0.110259347246
2.08407587354,0.108196029104
2.12112461082,0.106111215919
2.15883196565,0.103974179044
2.1972096463,0.101749143417
2.2362695692,0.0994063683118
2.27602386261,0.0969326149482
2.31648487039,0.0943366224854
2.35766515584,0.0916483213636
2.39957750561,0.0889132769441
2.44223493364,0.0861853840322
2.48565068524,0.0835205244816
2.52983824116,0.0809718846237
2.57481132182,0.0785859103129
2.62058389154,0.0763981303942
2.66717016287,0.0744290169683
2.71458460104,0.0726808486917
2.76284192842,0.0711369387795
2.8119571291,0.0697642538749
2.86194545354,0.0685192057674
2.91282242331,0.0673548831072
2.96460383592,0.0662275122267
3.01730576969,0.065101049769
3.07094458878,0.0639499938156
3.12553694826,0.0627606512316
3.18109979928,0.0615309144872
3.2376503943,0.060268319512
3.29520629253,0.0589864399042
3.35378536528,0.057700447804
3.4134058016,0.0564231556697
3.47408611386,0.055162804742
3.53584514354,0.0539230650366
3.59870206706,0.0527045703586
3.66267640174,0.0515069277185
3.72778801187,0.0503302612291
3.79405711485,0.0491759584955
3.86150428751,0.0480470234936
3.93015047246,0.0469484885356
4.00001698461,0.0458877521841
4.07112551778,0.0448743826629
4.14349815145,0.0439191197252
4.21715735762,0.0430322071901
4.29212600776,0.0422214981576
4.36842737992,0.0414908985868
4.44608516598,0.0408394795576
4.525123479,0.0402613006945
4.60556686068,0.0397460535532
4.687440289,0.0392806610976
4.770769186,0.0388515748598
4.85557942561,0.0384471773976
4.94189734175,0.0380596911051
5.02974973648,0.037686134236
5.11916388831,0.0373281820766
5.21016756068,0.0369911413636
5.3027890106,0.0366823576146
5.39705699739,0.0364094169763
5.49300079163,0.0361785916393
5.59065018425,0.0359939266137
5.69003549576,0.0358571070683
5.7911875857,0.0357679157048
5.8941378622,0.0357248836023
5.9989182917,0.0357257640688
6.10556140897,0.0357676397197
6.21410032709,0.035846646818
6.32456874783,0.0359574726085
6.43700097208,0.0360930396148
6.55143191047,0.0362447479841
6.66789709427,0.0364034851543
6.78643268638,0.036561382296
6.90707549256,0.0367139753303
7.02986297288,0.0368619193031
7.15483325334,0.0370112135177
7.2820251377,0.0371716402539
7.41147811953,0.0373543489016
7.54323239451,0.0375697324857
7.67732887285,0.0378260766954
7.81380919204,0.0381289094599
7.95271572976,0.0384808017947
8.09409161702,0.038881474427
8.23798075161,0.0393281738673
8.38442781165,0.0398162985261
8.53347826955,0.0403402827806
8.68517840606,0.0408945693061
8.83957532467,0.0414742709468
8.99671696622,0.0420751787998
9.15665212381,0.0426931133509
9.31943045795,0.0433230201208
9.48510251195,0.0439584508324
9.65371972762,0.0445918502814
9.82533446129,0.0452155874722
10.0,0.045823210284
