FREQ,AMP
0.3,0.0750711558469
0.305333117343,0.0748633318548
0.310761041821,0.0746011340485
0.316285458826,0.0742432080466
0.321908083711,0.0737648410799
0.327630662324,0.0731678189325
0.333454971549,0.0724825865394
0.339382819854,0.0717621440232
0.345416047862,0.0710703289649
0.351556528913,0.0704686948671
0.357806169651,0.0700054651507
0.364166910613,0.0697085644099
0.370640726835,0.0695834962459
0.377229628462,0.0696156081308
0.383935661374,0.0697750920055
0.390760907821,0.070023028513
0.397707487069,0.0703174300011
0.404777556058,0.0706185976449
0.411973310071,0.0708932933452
0.41929698342,0.0711175310477
0.426750850133,0.0712780992825
0.434337224666,0.0713727942115
0.442058462618,0.071409279484
0.449916961462,0.0714019594161
0.457915161295,0.0713668921709
0.466055545589,0.0713161143455
0.474340641965,0.0712534306035
0.482773022978,0.0711733624262
0.491355306916,0.0710639956685
0.500090158612,0.0709130485478
0.508980290271,0.0707152902782
0.518028462315,0.0704787749514
0.527237484236,0.0702271374918
0.536610215472,0.069996778921
0.546149566294,0.0698298527907
0.555858498706,0.0697651692443
0.565740027371,0.0698295842359
0.575797220542,0.0700318516132
0.586033201018,0.0703605413423
0.59645114711,0.0707867249922
0.607054293632,0.0712708973581
0.617845932903,0.0717720431645
0.628829415769,0.0722557593226
0.640008152645,0.0726990116711
0.651385614573,0.073090858921
0.662965334299,0.0734307947887
0.674750907372,0.0737271844525
0.686745993259,0.0739972832716
0.698954316481,0.0742682022641
0.71137966777,0.0745773161624
0.724025905248,0.0749708914541
0.736896955621,0.0755002952166
0.7499968154,0.0762162681394
0.763329552144,0.0771630749791
0.776899305719,0.0783743934184
0.790710289589,0.0798720318791
0.804766792117,0.0816676622794
0.819073177903,0.083767013044
0.833633889136,0.0861746679318
0.848453446974,0.0888975689021
0.863536452949,0.091945745932
0.878887590393,0.0953296127587
0.894511625895,0.0990545750592
0.910413410779,0.103114867279
0.926597882612,0.107489775122
0.943070066737,0.112144968667
0.959835077831,0.117039525426
0.976898121496,0.122136145368
0.994264495875,0.127409704626
1.0119395933,0.132848910425
1.02992890194,0.138448394763
1.04823800757,0.144193076023
1.06687259523,0.150039291257
1.08583845103,0.155898994976
1.10514146395,0.161633553829
1.12478762764,0.167062627374
1.14478304232,0.171988532161
1.16513391664,0.176231039557
1.18584656963,0.179662357724
1.20692743265,0.182231411187
1.22838305139,0.183969510271
1.25022008791,0.184976306387
1.27244532268,0.185390809888
1.29506565674,0.185357452373
1.31808811379,0.184998919211
1.34151984238,0.184402160297
1.36536811817,0.18361773343
1.38964034614,0.182667396436
1.41434406291,0.181554496127
1.43948693908,0.18027278983
1.46507678161,0.178811588413
1.49112153625,0.177159150212
1.51762929,0.175307574248
1.54460827362,0.173260958263
1.57206686419,0.171044196274
1.60001358771,0.168707083599
1.62845712176,0.166318959865
1.65740629815,0.16395270987
1.68687010572,0.161663146962
1.71685769311,0.159468583888
1.74737837157,0.157343881974
1.77844161789,0.155229144399
1.81005707734,0.15305149993
1.84223456665,0.150752684121
1.87498407703,0.148313783841
1.90831577736,0.145768299312
1.94224001725,0.143197639784
1.97676733032,0.140710161745
2.01190843742,0.138411495003
2.04767425002,0.136377233126
2.08407587354,0.134636214356
2.12112461082,0.133166939922
2.15883196565,0.13190485842
2.1972096463,0.130755905459
2.2362695692,0.129613466217
2.27602386261,0.128377545695
2.31648487039,0.126973633433
2.35766515584,0.125365040903
2.39957750561,0.123554349333
2.44223493364,0.121577033282
2.48565068524,0.119493542311
2.52983824116,0.117382501384
2.57481132182,0.115332899527
2.62058389154,0.113433099965
2.66717016287,0.111757499981
2.71458460104,0.110353610683
2.76284192842,0.109232677652
2.8119571291,0.108366584891
2.86194545354,0.107692497063
2.91282242331,0.10712515469
2.96460383592,0.106574158879
3.01730576969,0.105960805879
3.07094458878,0.105228581653
3.12553694826,0.104344147152
3.18109979928,0.103291623967
3.2376503943,0.102066201384
3.29520629253,0.100671444276
3.35378536528,0.0991201597587
3.4134058016,0.0974360020361
3.47408611386,0.0956537078083
3.53584514354,0.0938177558973
3.59870206706,0.0919796738664
3.66267640174,0.0901934528589
3.72778801187,0.0885082376218
3.79405711485,0.0869588654751
3.86150428751,0.0855575326848
3.93015047246,0.0842910119588
4.00001698461,0.0831263608736
4.07112551778,0.082023987027
4.14349815145,0.080952452652
4.21715735762,0.0798984612352
4.29212600776,0.0788683014632
4.36842737992,0.0778817965031
4.44608516598,0.0769628369138
4.525123479,0.0761305005553
4.60556686068,0.0753933155986
4.687440289,0.0747474389951
4.770769186,0.0741781036
4.85557942561,0.0736628347373
4.94189734175,0.0731752359782
5.02974973648,0.0726893111198
5.11916388831,0.0721847248206
5.21016756068,0.0716522173567
5.3027890106,0.0710967042045
5.39705699739,0.0705351164481
5.49300079163,0.0699885325227
5.59065018425,0.0694722520346
5.69003549576,0.0689889269471
5.7911875857,0.068527664962
5.8941378622,0.0680688616025
5.9989182917,0.067592442848
6.10556140897,0.0670863760513
6.21410032709,0.0665522514849
6.32456874783,0.0660057621741
6.43700097208,0.065472103052
6.55143191047,0.0649785078008
6.66789709427,0.0645471189486
6.78643268638,0.0641906922569
6.90707549256,0.0639120126927
7.02986297288,0.0637059519756
7.15483325334,0.0635624087068
7.2820251377,0.0634690589315
7.41147811953,0.0634136861476
7.54323239451,0.0633858297244
7.67732887285,0.0633773052308
7.81380919204,0.0633815419842
7.95271572976,0.0633922897963
8.09409161702,0.0634026183513
8.23798075161,0.0634048731354
8.38442781165,0.0633916879071
8.53347826955,0.0633577631946
8.68517840606,0.0633018505958
8.83957532467,0.0632281185324
8.99671696622,0.0631461149452
9.15665212381,0.0630689532675
9.31943045795,0.0630102177845
9.48510251195,0.0629807650678
9.65371972762,0.0629864885922
9.82533446129,0.0630275760107
10.0,0.0630990491944
