FREQ,AMP
0.3,0.0288049421366
0.305333117343,0.0291417698682
0.310761041821,0.0294089296338
0.316285458826,0.0295981762124
0.321908083711,0.0297107207997
0.327630662324,0.0297589820125
0.333454971549,0.0297665418443
0.339382819854,0.0297655133659
0.345416047862,0.0297914331511
0.351556528913,0.0298767787662
0.357806169651,0.030044946451
0.364166910613,0.0303063561987
0.370640726835,0.030657579832
0.377229628462,0.0310835457337
0.383935661374,0.0315619445169
0.390760907821,0.0320685119153
0.397707487069,0.0325817655881
0.404777556058,0.0330860880944
0.411973310071,0.0335725430932
0.41929698342,0.0340372498907
0.426750850133,0.0344782658798
0.434337224666,0.0348925943671
0.442058462618,0.0352746397761
0.449916961462,0.0356165829025
0.457915161295,0.0359101725393
0.466055545589,0.0361489819639
0.474340641965,0.0363301668726
0.482773022978,0.036455181805
0.491355306916,0.0365296784438
0.500090158612,0.0365632053806
0.508980290271,0.0365689990927
0.518028462315,0.0365633685472
0.527237484236,0.036564122468
0.536610215472,0.0365880501627
0.546149566294,0.0366482424768
0.555858498706,0.0367522148924
0.565740027371,0.036901268732
0.575797220542,0.0370911799591
0.586033201018,0.037313934908
0.59645114711,0.0375599384926
0.607054293632,0.0378198690486
0.617845932903,0.0380855395283
0.628829415769,0.0383496793151
0.640008152645,0.0386052328481
0.651385614573,0.0388453729097
0.662965334299,0.0390650119359
0.674750907372,0.0392636802791
0.686745993259,0.0394486027096
0.698954316481,0.0396364712864
0.71137966777,0.0398529770391
0.724025905248,0.0401297842118
0.736896955621,0.0404995490048
0.7499968154,0.0409904621286
0.763329552144,0.0416221240729
0.776899305719,0.0424039713358
0.790710289589,0.0433365543554
0.804766792117,0.0444151821456
0.819073177903,0.0456348850559
0.833633889136,0.0469946329689
0.848453446974,0.0484985869847
0.863536452949,0.0501535240135
0.878887590393,0.0519631574429
0.894511625895,0.0539215390865
0.910413410779,0.0560081582153
0.926597882612,0.0581867307869
0.943070066737,0.0604089656253
0.959835077831,0.0626227986296
0.976898121496,0.0647825353479
0.994264495875,0.0668570086478
1.0119395933,0.0688320178232
1.02992890194,0.070706015752
1.04823800757,0.0724810989017
1.06687259523,0.074153289427
1.08583845103,0.0757059120521
1.10514146395,0.0771082036545
1.12478762764,0.0783194103993
1.14478304232,0.0792965308995
1.16513391664,0.0800032517572
1.18584656963,0.0804172313286
1.20692743265,0.0805335635925
1.22838305139,0.0803638252183
1.25022008791,0.0799317724915
1.27244532268,0.0792676806765
1.29506565674,0.0784031173989
1.31808811379,0.0773675353995
1.34151984238,0.0761870058457
1.36536811817,0.0748842075405
1.38964034614,0.0734789164632
1.41434406291,0.0719886621552
1.43948693908,0.0704292774535
1.46507678161,0.0688152558156
1.49112153625,0.0671603632124
1.51762929,0.0654786585976
1.54460827362,0.0637857207957
1.57206686419,0.0620991415992
1.60001358771,0.0604376772465
1.62845712176,0.0588192793647
1.65740629815,0.0572587356036
1.68687010572,0.0557657506446
1.71685769311,0.054343757605
1.74737837157,0.0529894773023
1.77844161789,0.0516933344364
1.81005707734,0.0504406394205
1.84223456665,0.0492136832109
1.87498407703,0.0479944899446
1.90831577736,0.0467675693788
1.94224001725,0.0455219109582
1.97676733032,0.0442515534428
2.01190843742,0.0429547948432
2.04767425002,0.0416328635461
2.08407587354,0.0402887640273
2.12112461082,0.0389267152004
2.15883196565,0.0375522498849
2.1972096463,0.0361726632456
2.2362695692,0.0347973749864
2.27602386261,0.0334377600794
2.31648487039,0.0321062595154
2.35766515584,0.030815071823
2.39957750561,0.0295750125118
2.44223493364,0.028395072334
2.48565068524,0.027282711418
2.52983824116,0.0262443881894
2.57481132182,0.025285558086
2.62058389154,0.0244098872569
2.66717016287,0.0236179276021
2.71458460104,0.0229057370367
2.76284192842,0.0222640731711
2.8119571291,0.0216787133168
2.86194545354,0.0211321170732
2.91282242331,0.0206061828942
2.96460383592,0.0200853511448
3.01730576969,0.0195590397297
3.07094458878,0.0190226339108
3.12553694826,0.0184769070421
3.18109979928,0.0179264507069
3.2376503943,0.0173777825775
3.29520629253,0.0168374936314
3.35378536528,0.0163106712276
3.4134058016,0.0157999030993
3.47408611386,0.0153051741465
3.53584514354,0.0148247496972
3.59870206706,0.0143566339364
3.66267640174,0.0138999044851
3.72778801187,0.0134553702931
3.79405711485,0.0130253497584
3.86150428751,0.0126128032092
3.93015047246,0.0122203794355
4.00001698461,0.0118498838095
4.07112551778,0.0115022976681
4.14349815145,0.01117811809
4.21715735762,0.0108777082372
4.29212600776,0.0106014579716
4.36842737992,0.0103496905677
4.44608516598,0.0101224186364
4.525123479,0.00991915499651
4.60556686068,0.00973893870508
4.687440289,0.00958056045448
4.770769186,0.00944279585274
4.85557942561,0.00932445870471
4.94189734175,0.00922425088315
5.02974973648,0.00914054323712
5.11916388831,0.00907125866914
5.21016756068,0.00901391129272
5.3027890106,0.00896577237139
5.39705699739,0.00892410121633
5.49300079163,0.00888639887492
5.59065018425,0.00885068068775
5.69003549576,0.00881574220019
5.7911875857,0.00878132225327
5.8941378622,0.00874804589872
5.9989182917,0.00871712468068
6.10556140897,0.00868994198049
6.21410032709,0.00866770262221
6.32456874783,0.00865126322194
6.43700097208,0.00864113667574
6.55143191047,0.00863759247555
6.66789709427,0.00864078688823
6.78643268638,0.00865087807722
6.90707549256,0.00866811999424
7.02986297288,0.0086929227051
7.15483325334,0.00872582500195
7.2820251377,0.0087673464566
7.41147811953,0.00881776767889
7.54323239451,0.00887697069662
7.67732887285,0.00894446386994
7.81380919204,0.00901958405055
7.95271572976,0.00910177876292
8.09409161702,0.00919086209809
8.23798075161,0.00928716786399
8.38442781165,0.00939155186242
8.53347826955,0.00950522248618
8.68517840606,0.00962943921843
8.83957532467,0.00976518154035
8.99671696622,0.00991287728282
9.15665212381,0.0100722430125
9.31943045795,0.010242243313
9.48510251195,0.010421188016
9.65371972762,0.0106070182268
9.82533446129,0.0107977906238
10.0,0.0109922158081
