FREQ,AMP
0.3,0.107743602288
0.305333117343,0.107947596295
0.310761041821,0.10812437709
0.316285458826,0.108269623347
0.321908083711,0.108386060813
0.327630662324,0.108488503673
0.333454971549,0.108603699103
0.339382819854,0.108765810299
0.345416047862,0.109009836224
0.351556528913,0.109364638914
0.357806169651,0.109846364458
0.364166910613,0.110453264788
0.370640726835,0.111163545916
0.377229628462,0.111937857369
0.383935661374,0.112726649435
0.390760907821,0.113481166985
0.397707487069,0.114165628911
0.404777556058,0.114765979048
0.411973310071,0.115291104822
0.41929698342,0.115765859774
0.426750850133,0.116218996695
0.434337224666,0.11667133677
0.442058462618,0.117127747829
0.449916961462,0.117573970722
0.457915161295,0.117978493971
0.466055545589,0.118298837761
0.474340641965,0.118491264681
0.482773022978,0.11852168242
0.491355306916,0.118375214678
0.500090158612,0.118061678346
0.508980290271,0.117615738806
0.518028462315,0.11709226414
0.527237484236,0.116558145466
0.536610215472,0.116081714231
0.546149566294,0.115721006135
0.555858498706,0.115512734504
0.565740027371,0.115464862301
0.575797220542,0.115555437045
0.586033201018,0.115738709906
0.59645114711,0.115956872411
0.607054293632,0.116153189315
0.617845932903,0.116282208151
0.628829415769,0.116315359374
0.640008152645,0.116242745442
0.651385614573,0.116073115894
0.662965334299,0.115833771966
0.674750907372,0.115570072184
0.686745993259,0.115343601845
0.698954316481,0.11522889241
0.71137966777,0.11530895974
0.724025905248,0.115668597509
0.736896955621,0.116384862777
0.7499968154,0.117516334069
0.763329552144,0.119094564808
0.776899305719,0.121120888269
0.790710289589,0.123570050145
0.804766792117,0.126400442689
0.819073177903,0.129568952745
0.833633889136,0.133045207321
0.848453446974,0.136818312315
0.863536452949,0.140891688483
0.878887590393,0.14526643195
0.894511625895,0.149920094999
0.910413410779,0.154790885844
0.926597882612,0.159775453464
0.943070066737,0.164741807958
0.959835077831,0.1695519842
0.976898121496,0.174085144856
0.994264495875,0.178251613942
1.0119395933,0.181993645499
1.02992890194,0.185275732653
1.04823800757,0.18807197009
1.06687259523,0.190357665323
1.08583845103,0.192109474566
1.10514146395,0.193313083824
1.12478762764,0.193972847193
1.14478304232,0.194116036666
1.16513391664,0.193787805155
1.18584656963,0.193039574354
1.20692743265,0.191916423407
1.22838305139,0.190448118023
1.25022008791,0.188646115246
1.27244532268,0.186506578395
1.29506565674,0.184018327781
1.31808811379,0.181174166223
1.34151984238,0.177982925621
1.36536811817,0.174478600197
1.38964034614,0.170723142921
1.41434406291,0.166802087594
1.43948693908,0.162814078726
1.46507678161,0.158857032724
1.49112153625,0.155014860762
1.51762929,0.151348420795
1.54460827362,0.14789236451
1.57206686419,0.144657448158
1.60001358771,0.141636558227
1.62845712176,0.13881184539
1.65740629815,0.136161040734
1.68687010572,0.133661539095
1.71685769311,0.131291828467
1.74737837157,0.129030976902
1.77844161789,0.126857435926
1.81005707734,0.124748027804
1.84223456665,0.122678578252
1.87498407703,0.120626912242
1.90831577736,0.118576614831
1.94224001725,0.116519849371
1.97676733032,0.114457250408
2.01190843742,0.112393924599
2.04767425002,0.11033284896
2.08407587354,0.108268116344
2.12112461082,0.106180807897
2.15883196565,0.104040028535
2.1972096463,0.101810062557
2.2362695692,0.0994615381477
2.27602386261,0.096981875771
2.31648487039,0.0943806427673
2.35766515584,0.0916886077057
2.39957750561,0.0889520704771
2.44223493364,0.0862254986752
2.48565068524,0.0835651251347
2.52983824116,0.0810241735318
2.57481132182,0.0786487199693
2.62058389154,0.0764734903658
2.66717016287,0.0745178113109
2.71458460104,0.0727826545075
2.76284192842,0.071250076215
2.8119571291,0.0698860294093
2.86194545354,0.0686462865863
2.91282242331,0.0674837168208
2.96460383592,0.0663547138149
3.01730576969,0.0652237019141
3.07094458878,0.064065835109
3.12553694826,0.0628681508514
3.18109979928,0.0616292350024
3.2376503943,0.060357184231
3.29520629253,0.0590659499454
3.35378536528,0.0577709110981
3.4134058016,0.05648497909
3.47408611386,0.0552164663226
3.53584514354,0.0539691416567
3.59870206706,0.0527437829999
3.66267640174,0.0515401716959
3.72778801187,0.0503585971311
3.79405711485,0.0492005606184
3.86150428751,0.048069095785
3.93015047246,0.0469691609785
4.00001698461,0.0459079657069
4.07112551778,0.0448947778965
4.14349815145,0.0439399606876
4.21715735762,0.043053374162
4.29212600776,0.0422425714665
4.36842737992,0.0415113189627
4.44608516598,0.0408587365738
4.525123479,0.040279086068
4.60556686068,0.039762329314
4.687440289,0.0392956295632
4.770769186,0.0388655720627
4.85557942561,0.0384605494616
4.94189734175,0.0380727155595
5.02974973648,0.0376990146945
5.11916388831,0.0373411056907
5.21016756068,0.0370043603778
5.3027890106,0.0366962478398
5.39705699739,0.0364244829574
5.49300079163,0.036195415115
5.59065018425,0.0360130782329
5.69003549576,0.0358790574385
5.7911875857,0.0357929851418
5.8941378622,0.0357532611795
5.9989182917,0.0357575962275
6.10556140897,0.0358031500533
6.21410032709,0.0358862201921
6.32456874783,0.0360016429389
6.43700097208,0.0361423647977
6.55143191047,0.0362996048352
6.66789709427,0.0364638569697
6.78643268638,0.0366267282365
6.90707549256,0.0367832565353
7.02986297288,0.0369338031895
7.15483325334,0.0370843991946
7.2820251377,0.0372451912141
7.41147811953,0.0374279170201
7.54323239451,0.0376436059594
7.67732887285,0.0379010525525
7.81380919204,0.0382060397841
7.95271572976,0.0385610893675
8.09409161702,0.0389655987128
8.23798075161,0.0394163101037
8.38442781165,0.0399080624458
8.53347826955,0.0404347975556
8.68517840606,0.0409906232203
8.83957532467,0.0415705235358
8.99671696622,0.0421703825564
9.15665212381,0.0427863310516
9.31943045795,0.0434138169903
9.48510251195,0.0440470260086
9.65371972762,0.0446790587915
9.82533446129,0.0453028162784
10.0,0.0459121216113
