FREQ,AMP
0.3,0.0290921883905
0.305333117343,0.0294333868157
0.310761041821,0.0297055639974
0.316285458826,0.0298994334226
0.321908083711,0.0300150569835
0.327630662324,0.0300641043203
0.333454971549,0.0300701495673
0.339382819854,0.030066045328
0.345416047862,0.0300885316902
0.351556528913,0.0301713867335
0.357806169651,0.0303391108078
0.364166910613,0.0306028211954
0.370640726835,0.0309591920346
0.377229628462,0.0313924988755
0.383935661374,0.0318789721264
0.390760907821,0.0323922482003
0.397707487069,0.0329085775052
0.404777556058,0.0334105763134
0.411973310071,0.0338886697216
0.41929698342,0.0343397959525
0.426750850133,0.0347641873497
0.434337224666,0.035161934032
0.442058462618,0.0355308229747
0.449916961462,0.0358660704032
0.457915161295,0.0361615431317
0.466055545589,0.0364115645939
0.474340641965,0.0366124333702
0.482773022978,0.0367632352909
0.491355306916,0.0368662112551
0.500090158612,0.0369271830838
0.508980290271,0.0369560940314
0.518028462315,0.0369669425442
0.527237484236,0.0369764622055
0.536610215472,0.0370015669603
0.546149566294,0.0370564307113
0.555858498706,0.0371502862925
0.565740027371,0.0372864333813
0.575797220542,0.0374626003796
0.586033201018,0.0376724488131
0.59645114711,0.0379076586444
0.607054293632,0.0381597728426
0.617845932903,0.0384211461154
0.628829415769,0.038684826135
0.640008152645,0.0389438622295
0.651385614573,0.0391912154717
0.662965334299,0.0394211434373
0.674750907372,0.0396320653983
0.686745993259,0.0398298210277
0.698954316481,0.0400297898685
0.71137966777,0.0402567830214
0.724025905248,0.0405421966086
0.736896955621,0.0409189569878
0.7499968154,0.0414158245339
0.763329552144,0.0420529956274
0.776899305719,0.0428403258228
0.790710289589,0.0437785359846
0.804766792117,0.044862910983
0.819073177903,0.0460884038849
0.833633889136,0.0474540216665
0.848453446974,0.048964206038
0.863536452949,0.0506263254066
0.878887590393,0.0524449715843
0.894511625895,0.0544152423511
0.910413410779,0.0565176439628
0.926597882612,0.0587166301786
0.943070066737,0.0609641104368
0.959835077831,0.0632074733646
0.976898121496,0.0653996244916
0.994264495875,0.0675072111231
1.0119395933,0.06951336884
1.02992890194,0.0714139691407
1.04823800757,0.073209321053
1.06687259523,0.0748950545561
1.08583845103,0.0764557334015
1.10514146395,0.0778631508188
1.12478762764,0.0790795680279
1.14478304232,0.0800643360733
1.16513391664,0.0807818902649
1.18584656963,0.0812086577023
1.20692743265,0.0813368745564
1.22838305139,0.0811745695731
1.25022008791,0.0807424004867
1.27244532268,0.0800689325837
1.29506565674,0.0791858224532
1.31808811379,0.0781241810796
1.34151984238,0.0769125396659
1.36536811817,0.0755758519874
1.38964034614,0.0741352189091
1.41434406291,0.0726083111336
1.43948693908,0.0710102634971
1.46507678161,0.0693547312271
1.49112153625,0.0676552063683
1.51762929,0.0659264251955
1.54460827362,0.0641855541469
1.57206686419,0.062452287247
1.60001358771,0.0607474390392
1.62845712176,0.0590904904833
1.65740629815,0.0574969491641
1.68687010572,0.055976392127
1.71685769311,0.0545314577848
1.74737837157,0.0531576928216
1.77844161789,0.0518442776147
1.81005707734,0.0505754602526
1.84223456665,0.0493328054455
1.87498407703,0.0480979929019
1.90831577736,0.0468555460163
1.94224001725,0.0455947612055
1.97676733032,0.044310166615
2.01190843742,0.0430005777179
2.04767425002,0.0416675878925
2.08407587354,0.0403142899152
2.12112461082,0.038944708309
2.15883196565,0.0375639975418
2.1972096463,0.0361790238005
2.2362695692,0.0347988381321
2.27602386261,0.0334345985379
2.31648487039,0.0320987560047
2.35766515584,0.0308037746931
2.39957750561,0.0295609446349
2.44223493364,0.0283798111316
2.48565068524,0.0272682926674
2.52983824116,0.026233066593
2.57481132182,0.0252795154329
2.62058389154,0.0244109758264
2.66717016287,0.0236275097453
2.71458460104,0.0229246436615
2.76284192842,0.022292672194
2.8119571291,0.0217170591623
2.86194545354,0.0211801244652
2.91282242331,0.0206637505944
2.96460383592,0.0201523668562
3.01730576969,0.019635251982
3.07094458878,0.0191074660365
3.12553694826,0.0185693296254
3.18109979928,0.0180249772712
3.2376503943,0.0174805757693
3.29520629253,0.0169425321001
3.35378536528,0.0164159222759
3.4134058016,0.015903464706
3.47408611386,0.0154053722047
3.53584514354,0.0149201850093
3.59870206706,0.0144461872979
3.66267640174,0.0139827264069
3.72778801187,0.0135308791549
3.79405711485,0.0130932495308
3.86150428751,0.0126731148014
3.93015047246,0.0122734620415
4.00001698461,0.0118964207368
4.07112551778,0.0115432305558
4.14349815145,0.0112145339991
4.21715735762,0.0109107118091
4.29212600776,0.010632074489
4.36842737992,0.0103788302811
4.44608516598,0.0101509016767
4.525123479,0.00994776616705
4.60556686068,0.00976847301536
4.687440289,0.00961183195725
4.770769186,0.0094766044088
4.85557942561,0.00936152542722
4.94189734175,0.00926513884427
5.02974973648,0.0091855821603
5.11916388831,0.00912048936331
5.21016756068,0.00906705964738
5.3027890106,0.00902225614583
5.39705699739,0.00898307116454
5.49300079163,0.00894681463395
5.59065018425,0.00891141521047
5.69003549576,0.00887570016555
5.7911875857,0.00883954865799
5.8941378622,0.00880380481963
5.9989182917,0.0087699435452
6.10556140897,0.00873962601091
6.21410032709,0.00871432457514
6.32456874783,0.00869513138358
6.43700097208,0.00868274086413
6.55143191047,0.00867752975188
6.66789709427,0.0086796751757
6.78643268638,0.00868927305452
6.90707549256,0.0087064522652
7.02986297288,0.00873146590812
7.15483325334,0.00876469453589
7.2820251377,0.00880651930846
7.41147811953,0.0088571100597
7.54323239451,0.00891626443973
7.67732887285,0.00898343125591
7.81380919204,0.00905791651567
7.95271572976,0.00913917288247
8.09409161702,0.00922706014417
8.23798075161,0.00932199758172
8.38442781165,0.00942496021698
8.53347826955,0.00953730062951
8.68517840606,0.00966043559995
8.83957532467,0.00979549644541
8.99671696622,0.00994302918239
9.15665212381,0.0101028002079
9.31943045795,0.0102737265504
9.48510251195,0.0104539613604
9.65371972762,0.0106411955047
9.82533446129,0.0108331913659
10.0,0.01102839807
