FREQ,AMP
0.3,0.107739994732
0.305333117343,0.107941677448
0.310761041821,0.10811750271
0.316285458826,0.108262815809
0.321908083711,0.108379828738
0.327630662324,0.108482870693
0.333454971549,0.10859842133
0.339382819854,0.108760684598
0.345416047862,0.109004964213
0.351556528913,0.109360547188
0.357806169651,0.10984395936
0.364166910613,0.110453667265
0.370640726835,0.111167855223
0.377229628462,0.111946880616
0.383935661374,0.11274064561
0.390760907821,0.113499683606
0.397707487069,0.114187517616
0.404777556058,0.114789610109
0.411973310071,0.115314703426
0.41929698342,0.11578783259
0.426750850133,0.116238131113
0.434337224666,0.116686832107
0.442058462618,0.117139122904
0.449916961462,0.117580945284
0.457915161295,0.117980927811
0.466055545589,0.1182967468
0.474340641965,0.118484895801
0.482773022978,0.118511617258
0.491355306916,0.118362453956
0.500090158612,0.118047643691
0.508980290271,0.117602145759
0.518028462315,0.117080880978
0.527237484236,0.116550500877
0.536610215472,0.11607883195
0.546149566294,0.11572322692
0.555858498706,0.115519644953
0.565740027371,0.115475332108
0.575797220542,0.115567769793
0.586033201018,0.115750912487
0.59645114711,0.115967036905
0.607054293632,0.116159929682
0.617845932903,0.11628503366
0.628829415769,0.116314847516
0.640008152645,0.116240426556
0.651385614573,0.116071086522
0.662965334299,0.115834165584
0.674750907372,0.115574564414
0.686745993259,0.115353094273
0.698954316481,0.115243434437
0.71137966777,0.11532788708
0.724025905248,0.115690814385
0.736896955621,0.116409172963
0.7499968154,0.117541733849
0.763329552144,0.119120438223
0.776899305719,0.121147084253
0.790710289589,0.12359685283
0.804766792117,0.126428462445
0.819073177903,0.129598975026
0.833633889136,0.133078035663
0.848453446974,0.136854634364
0.863536452949,0.140931980156
0.878887590393,0.145310908839
0.894511625895,0.149968721908
0.910413410779,0.154843432355
0.926597882612,0.159831570324
0.943070066737,0.164801104834
0.959835077831,0.169614094338
0.976898121496,0.174149769678
0.994264495875,0.178318536685
1.0119395933,0.182062702634
1.02992890194,0.18534674517
1.04823800757,0.188144666734
1.06687259523,0.190431650853
1.08583845103,0.192184270956
1.10514146395,0.193388238421
1.12478762764,0.194048072077
1.14478304232,0.194191316763
1.16513391664,0.193863418482
1.18584656963,0.193116009103
1.20692743265,0.191994213324
1.22838305139,0.190527636757
1.25022008791,0.18872738316
1.27244532268,0.186589149462
1.29506565674,0.184101300725
1.31808811379,0.181256329252
1.34151984238,0.178063001258
1.36536811817,0.174555511807
1.38964034614,0.17079621637
1.41434406291,0.166871139308
1.43948693908,0.162879379385
1.46507678161,0.158919170335
1.49112153625,0.155074543464
1.51762929,0.151406273297
1.54460827362,0.147948777027
1.57206686419,0.144712511451
1.60001358771,0.141690088027
1.62845712176,0.138863482998
1.65740629815,0.136210401888
1.68687010572,0.133708367717
1.71685769311,0.131336108534
1.74737837157,0.129072964655
1.77844161789,0.126897600238
1.81005707734,0.124786924522
1.84223456665,0.122716710032
1.87498407703,0.120664623072
1.90831577736,0.118614046146
1.94224001725,0.116556955446
1.97676733032,0.11449385104
2.01190843742,0.112429772106
2.04767425002,0.110367687864
2.08407587354,0.108301725841
2.12112461082,0.106213022576
2.15883196565,0.104070742945
2.1972096463,0.101839235606
2.2362695692,0.0994892077055
2.27602386261,0.0970081784283
2.31648487039,0.0944058251158
2.35766515584,0.0917130179381
2.39957750561,0.08897613175
2.44223493364,0.0862496727651
2.48565068524,0.0835898710552
2.52983824116,0.0810499014464
2.57481132182,0.0786757425078
2.62058389154,0.0765019795461
2.66717016287,0.0745477737765
2.71458460104,0.0728139322153
2.76284192842,0.0712823719912
2.8119571291,0.0699189519641
2.86194545354,0.0686794023067
2.91282242331,0.0675165950789
2.96460383592,0.0663869607395
3.01730576969,0.0652549838157
3.07094458878,0.0640958941261
3.12553694826,0.0628968128785
3.18109979928,0.0616564051509
3.2376503943,0.0603828259037
3.29520629253,0.0590900517062
3.35378536528,0.0577934542515
3.4134058016,0.0565059191539
3.47408611386,0.0552357356862
3.53584514354,0.0539866700657
3.59870206706,0.0527595258645
3.66267640174,0.0515541360947
3.72778801187,0.0503708578873
3.79405711485,0.0492112628827
3.86150428751,0.0480784434731
3.93015047246,0.0469773920386
4.00001698461,0.0459153165673
4.07112551778,0.044901444077
4.14349815145,0.0439460653275
4.21715735762,0.0430589556856
4.29212600776,0.0422475962768
4.36842737992,0.0415157153845
4.44608516598,0.0408624380065
4.525123479,0.0402820688343
4.60556686068,0.0397646342644
4.687440289,0.0392973631317
4.770769186,0.038866888143
4.85557942561,0.0384616208343
4.94189734175,0.0380737059709
5.02974973648,0.0377000604396
5.11916388831,0.0373423103417
5.21016756068,0.0370058002112
5.3027890106,0.0366979808284
5.39705699739,0.0364265545324
5.49300079163,0.0361978569582
5.59065018425,0.0360159001082
5.69003549576,0.0358822364943
5.7911875857,0.0357964595291
5.8941378622,0.035756934826
5.9989182917,0.0357613576055
6.10556140897,0.0358069012437
6.21410032709,0.0358899066806
6.32456874783,0.036005272734
6.43700097208,0.0361460091303
6.55143191047,0.036303379125
6.66789709427,0.0364678883985
6.78643268638,0.0366311231632
6.90707549256,0.0367880830707
7.02986297288,0.036939097594
7.15483325334,0.0370901907722
7.2820251377,0.0372515291908
7.41147811953,0.0374348825831
7.54323239451,0.0376513035034
7.67732887285,0.0379095877201
7.81380919204,0.038215496874
7.95271572976,0.0385715152883
8.09409161702,0.0389769928873
8.23798075161,0.039428617578
8.38442781165,0.0399211707844
8.53347826955,0.0404485407101
8.68517840606,0.0410047957707
8.83957532467,0.041584906912
8.99671696622,0.0421847818742
9.15665212381,0.0428006179586
9.31943045795,0.0434279696072
9.48510251195,0.0440611527382
9.65371972762,0.0446933924471
9.82533446129,0.0453176728644
10.0,0.0459278332057
