FREQ,AMP
0.3,0.0290085960324
0.305333117343,0.0293470514803
0.310761041821,0.0296161032271
0.316285458826,0.0298069479806
0.321908083711,0.0299201311638
0.327630662324,0.0299676154163
0.333454971549,0.0299729638095
0.339382819854,0.0299687340697
0.345416047862,0.0299912182079
0.351556528913,0.0300737398734
0.357806169651,0.030240441752
0.364166910613,0.0305022463285
0.370640726835,0.0308558553179
0.377229628462,0.0312858456415
0.383935661374,0.0317690401059
0.390760907821,0.032279900568
0.397707487069,0.0327955645666
0.404777556058,0.0332993462249
0.411973310071,0.0337819302835
0.41929698342,0.0342399156005
0.426750850133,0.0346725831958
0.434337224666,0.0350785921032
0.442058462618,0.0354540664987
0.449916961462,0.0357926507278
0.457915161295,0.0360870759451
0.466055545589,0.0363312695384
0.474340641965,0.036522038939
0.482773022978,0.0366598221096
0.491355306916,0.0367487593185
0.500090158612,0.0367966800734
0.508980290271,0.0368152067475
0.518028462315,0.0368193815236
0.527237484236,0.0368262301374
0.536610215472,0.0368522839665
0.546149566294,0.0369108775064
0.555858498706,0.0370102140676
0.565740027371,0.0371526169055
0.575797220542,0.0373350520519
0.586033201018,0.037550677902
0.59645114711,0.0377908831783
0.607054293632,0.0380470275882
0.617845932903,0.038311270511
0.628829415769,0.0385763808095
0.640008152645,0.0388350723047
0.651385614573,0.0390800428338
0.662965334299,0.0393055318175
0.674750907372,0.0395103050063
0.686745993259,0.0397009009126
0.698954316481,0.0398935857674
0.71137966777,0.0401139960511
0.724025905248,0.0403940766859
0.736896955621,0.0407669276645
0.7499968154,0.0412611336612
0.763329552144,0.0418964802055
0.776899305719,0.042682333877
0.790710289589,0.0436190019129
0.804766792117,0.0447015381041
0.819073177903,0.0459248757028
0.833633889136,0.0472881530866
0.848453446974,0.0487959750582
0.863536452949,0.0504557693774
0.878887590393,0.0522719926439
0.894511625895,0.0542394067953
0.910413410779,0.0563380616027
0.926597882612,0.0585319710097
0.943070066737,0.0607727809637
0.959835077831,0.0630079424522
0.976898121496,0.0651908473192
0.994264495875,0.0672890448569
1.0119395933,0.0692868192464
1.02992890194,0.071181109182
1.04823800757,0.0729728154182
1.06687259523,0.0746574018225
1.08583845103,0.0762184725996
1.10514146395,0.0776263278595
1.12478762764,0.0788417110114
1.14478304232,0.0798230180535
1.16513391664,0.0805347295224
1.18584656963,0.0809544160366
1.20692743265,0.0810762530295
1.22838305139,0.0809104184831
1.25022008791,0.0804792942716
1.27244532268,0.0798122898711
1.29506565674,0.0789409107364
1.31808811379,0.0778953370989
1.34151984238,0.0767028318028
1.36536811817,0.075387228503
1.38964034614,0.0739689732686
1.41434406291,0.0724655675272
1.43948693908,0.0708922065386
1.46507678161,0.0692624706619
1.49112153625,0.0675893747442
1.51762929,0.0658867537857
1.54460827362,0.0641706557272
1.57206686419,0.062459744022
1.60001358771,0.0607741464677
1.62845712176,0.0591331122914
1.65740629815,0.0575523522698
1.68687010572,0.0560419741116
1.71685769311,0.0546053189261
1.74737837157,0.0532386593753
1.77844161789,0.0519318022464
1.81005707734,0.0506694396343
1.84223456665,0.0494333656012
1.87498407703,0.0482052887067
1.90831577736,0.0469695984934
1.94224001725,0.0457153370626
1.97676733032,0.0444367103749
2.01190843742,0.0431322126344
2.04767425002,0.041803189355
2.08407587354,0.0404525932791
2.12112461082,0.0390843990552
2.15883196565,0.0377037623675
2.1972096463,0.0363175911038
2.2362695692,0.034935043693
2.27602386261,0.0335674613342
2.31648487039,0.0322275172678
2.35766515584,0.0309278749415
2.39957750561,0.0296799533298
2.44223493364,0.0284933507817
2.48565068524,0.0273759998387
2.52983824116,0.0263345997047
2.57481132182,0.0253745841908
2.62058389154,0.0244993601041
2.66717016287,0.0237090446183
2.71458460104,0.0229991674525
2.76284192842,0.0223599533203
2.8119571291,0.021776727541
2.86194545354,0.0212316434654
2.91282242331,0.0207064676849
2.96460383592,0.0201856628239
3.01730576969,0.0196587601036
3.07094458878,0.0191212786048
3.12553694826,0.0185741021733
3.18109979928,0.0180218970824
3.2376503943,0.0174712251069
3.29520629253,0.0169287041565
3.35378536528,0.016399443077
3.4134058016,0.0158860512976
3.47408611386,0.0153885359986
3.53584514354,0.0149051778868
3.59870206706,0.0144339810741
3.66267640174,0.013974010632
3.72778801187,0.013526066565
3.79405711485,0.0130924852165
3.86150428751,0.0126762901046
3.93015047246,0.0122802384949
4.00001698461,0.0119062700096
4.07112551778,0.0115554943657
4.14349815145,0.0112285003039
4.21715735762,0.0109256911271
4.29212600776,0.0106474539948
4.36842737992,0.0103940914366
4.44608516598,0.0101656020751
4.525123479,0.00996150123534
4.60556686068,0.00978083871433
4.687440289,0.00962240502782
4.770769186,0.00948494678367
4.85557942561,0.00936721104863
4.94189734175,0.00926779706804
5.02974973648,0.00918494987805
5.11916388831,0.00911646325245
5.21016756068,0.0090597388219
5.3027890106,0.00901196531768
5.39705699739,0.00897035472096
5.49300079163,0.00893239601828
5.59065018425,0.00889612556
5.69003549576,0.00886038986554
5.7911875857,0.00882500160663
5.8941378622,0.00879067161096
5.9989182917,0.00875869867143
6.10556140897,0.00873054602271
6.21410032709,0.00870748274008
6.32456874783,0.00869040701664
6.43700097208,0.00867984453649
6.55143191047,0.0086760456276
6.66789709427,0.00867911787762
6.78643268638,0.00868915061928
6.90707549256,0.00870632388667
7.02986297288,0.00873098518821
7.15483325334,0.008763634781
7.2820251377,0.00880478266736
7.41147811953,0.00885472505211
7.54323239451,0.00891337508717
7.67732887285,0.00898027727494
7.81380919204,0.00905480247737
7.95271572976,0.00913642761673
8.09409161702,0.00922499293366
8.23798075161,0.00932085904406
8.38442781165,0.00942491336437
8.53347826955,0.00953840330111
8.68517840606,0.0096626337516
8.83957532467,0.00979862988045
8.99671696622,0.0099468544295
9.15665212381,0.0101070349125
9.31943045795,0.0102781131428
9.48510251195,0.0104583394381
9.65371972762,0.0106455641599
9.82533446129,0.0108377366195
10.0,0.0110334638486
