FREQ,AMP
0.3,0.0750544351842
0.305333117343,0.0748455167233
0.310761041821,0.0745834495229
0.316285458826,0.074226620689
0.321908083711,0.0737500642394
0.327630662324,0.0731553925162
0.333454971549,0.0724729550181
0.339382819854,0.071755665741
0.345416047862,0.0710672063161
0.351556528913,0.0704688777094
0.357806169651,0.0700085993498
0.364166910613,0.0697140166563
0.370640726835,0.0695904398962
0.377229628462,0.0696231365196
0.383935661374,0.0697823332737
0.390760907821,0.0700292518934
0.397707487069,0.070322137766
0.404777556058,0.0706215856464
0.411973310071,0.0708946599086
0.41929698342,0.0711176254017
0.426750850133,0.0712774173719
0.434337224666,0.0713718485975
0.442058462618,0.0714084796412
0.449916961462,0.0714015320545
0.457915161295,0.0713668598173
0.466055545589,0.0713163292518
0.474340641965,0.0712536382222
0.482773022978,0.0711732659487
0.491355306916,0.071063306955
0.500090158612,0.0709115275045
0.508980290271,0.0707127800551
0.518028462315,0.070475229892
0.527237484236,0.070222636811
0.536610215472,0.0699915206696
0.546149566294,0.0698241234422
0.555858498706,0.0697592901815
0.565740027371,0.0698238469411
0.575797220542,0.070026463981
0.586033201018,0.0703556080624
0.59645114711,0.0707822655942
0.607054293632,0.0712668859026
0.617845932903,0.071768447179
0.628829415769,0.0722525634042
0.640008152645,0.0726962201362
0.651385614573,0.0730884775649
0.662965334299,0.0734287939653
0.674750907372,0.0737254551682
0.686745993259,0.0739956076652
0.698954316481,0.0742662636552
0.71137966777,0.0745747596536
0.724025905248,0.0749674219834
0.736896955621,0.0754957805305
0.7499968154,0.076210809687
0.763329552144,0.0771570203382
0.776899305719,0.0783682814667
0.790710289589,0.0798664817455
0.804766792117,0.0816632313349
0.819073177903,0.0837640590011
0.833633889136,0.086173254565
0.848453446974,0.0888974403724
0.863536452949,0.0919463776794
0.878887590393,0.0953303277803
0.894511625895,0.0990546952343
0.910413410779,0.103113860058
0.926597882612,0.107487353884
0.943070066737,0.112141116026
0.959835077831,0.117034434934
0.976898121496,0.12213010981
0.994264495875,0.127403006173
1.0119395933,0.132841766494
1.02992890194,0.13844097889
1.04823800757,0.144185590748
1.06687259523,0.150032044769
1.08583845103,0.15589243321
1.10514146395,0.161628216782
1.12478762764,0.167059013748
1.14478304232,0.171986896132
1.16513391664,0.17623120059
1.18584656963,0.179663633562
1.20692743265,0.182232734797
1.22838305139,0.18396968865
1.25022008791,0.184974308405
1.27244532268,0.185385973332
1.29506565674,0.185349563691
1.31808811379,0.184988183879
1.34151984238,0.184389105484
1.36536811817,0.183603088042
1.38964034614,0.182651974862
1.41434406291,0.181539094566
1.43948693908,0.180258099751
1.46507678161,0.178798127436
1.49112153625,0.177147208617
1.51762929,0.175297179031
1.54460827362,0.173251853553
1.57206686419,0.171035852309
1.60001358771,0.168698756549
1.62845712176,0.166309814526
1.65740629815,0.163941992963
1.68687010572,0.161650373069
1.71685769311,0.159453680381
1.74737837157,0.157327239484
1.77844161789,0.155211549868
1.81005707734,0.153033967888
1.84223456665,0.150736236167
1.87498407703,0.148299241557
1.90831577736,0.14575614825
1.94224001725,0.143187998868
1.97676733032,0.140702853145
2.01190843742,0.138406171226
2.04767425002,0.136373504278
2.08407587354,0.134633733974
2.12112461082,0.133165430554
2.15883196565,0.131904081496
2.1972096463,0.130755595661
2.2362695692,0.129613263314
2.27602386261,0.128376959269
2.31648487039,0.126972067323
2.35766515584,0.125361884468
2.39957750561,0.123549111555
2.44223493364,0.121569471672
2.48565068524,0.119483743492
2.52983824116,0.117370890987
2.57481132182,0.11532018001
2.62058389154,0.113420131377
2.66717016287,0.11174515379
2.71458460104,0.110342634492
2.76284192842,0.109223601546
2.8119571291,0.108359677619
2.86194545354,0.107687761681
2.91282242331,0.107122352938
2.96460383592,0.106572862237
3.01730576969,0.105960472226
3.07094458878,0.105228648461
3.12553694826,0.104344125501
3.18109979928,0.10329117395
3.2376503943,0.102065173831
3.29520629253,0.100669880704
3.35378536528,0.0991182490457
3.4134058016,0.0974340050095
3.47408611386,0.0956518714995
3.53584514354,0.0938162404447
3.59870206706,0.0919785048875
3.66267640174,0.0901925033588
3.72778801187,0.0885072395705
3.79405711485,0.0869574499711
3.86150428751,0.0855552912745
3.93015047246,0.0842875655286
4.00001698461,0.0831214200405
4.07112551778,0.0820173899964
4.14349815145,0.0809441738074
4.21715735762,0.0798885934009
4.29212600776,0.0788570234141
4.36842737992,0.0778693398452
4.44608516598,0.0769494595573
4.525123479,0.076116464568
4.60556686068,0.0753788607063
4.687440289,0.074732746533
4.770769186,0.0741632546042
4.85557942561,0.0736477750912
4.94189734175,0.0731597649414
5.02974973648,0.0726731033534
5.11916388831,0.0721673816202
5.21016756068,0.0716333291801
5.3027890106,0.0710759032764
5.39705699739,0.0705121057306
5.49300079163,0.0699630906895
5.59065018425,0.0694442248584
5.69003549576,0.0689582169696
5.7911875857,0.0684942273254
5.8941378622,0.068032707073
5.9989182917,0.0675536421956
6.10556140897,0.0670450577433
6.21410032709,0.066508589528
6.32456874783,0.0659599551582
6.43700097208,0.0654243484117
6.55143191047,0.0649289762285
6.66789709427,0.0644959333094
6.78643268638,0.0641379150899
6.90707549256,0.0638576458348
7.02986297288,0.0636499522971
7.15483325334,0.0635047229496
7.2820251377,0.0634096756826
7.41147811953,0.0633526962804
7.54323239451,0.06332348042
7.67732887285,0.0633140303272
7.81380919204,0.0633179552035
7.95271572976,0.063329137693
8.09409161702,0.0633407006718
8.23798075161,0.0633449467651
8.38442781165,0.0633343743497
8.53347826955,0.0633034778418
8.68517840606,0.0632507669508
8.83957532467,0.0631801737515
8.99671696622,0.0631010536241
9.15665212381,0.0630263971718
9.31943045795,0.0629697428832
9.48510251195,0.0629419677608
9.65371972762,0.0629490309888
9.82533446129,0.0629912090859
10.0,0.0630636167919
